ARQUIVO DE REFERENCIA
Usuário: LEONARDO
Amostra: DETECTOR DE SILICIO
Comentário: 4 A e 23.8 V
Area: 1
320 Hz
Com filtros
Todas Grades
Parâmetros: vmode 1 sen 27 acgain 0 tc 10

Responsividade (A/W)	Comprimento de onda(nm)
0.2021835	2030.0001
0.2088362	2113.2225
0.2110528	2146.5189
0.2177026	2246.4081
0.2221387	2296.3342
0.2287857	2412.8900
0.2398828	2496.0384
0.2443217	2529.2978
0.2554188	2612.4462
0.2665131	2712.2613
0.2709519	2745.5206
0.2798268	2828.7060
0.2886961	2945.2249
0.2931209	3061.8178
0.2975485	3161.7440
0.3019790	3245.0035
0.3108595	3294.8555
0.3197343	3378.0409
0.3330509	3477.8190
0.3419286	3544.3377
0.3485840	3610.8934
0.3574589	3694.0788
0.3663366	3760.5975
0.3685504	3810.5606
0.3707698	3827.1903
0.3774253	3893.7461
0.3840808	3960.3018
0.3885168	4010.2279
0.3951695	4093.4503
0.3973833	4143.4134
0.4018081	4260.0063
0.4084551	4376.5622
0.4106717	4409.8586
0.4128828	4476.4884
0.4150966	4526.4515
0.4173160	4543.0812
0.4195298	4593.0443
0.4217436	4643.0074
0.4239574	4692.9705
0.4261740	4726.2669
0.4306045	4809.5264
0.4328155	4876.1562
0.4372459	4959.4157
0.4416735	5059.3419
0.4438901	5092.6383
0.4461068	5125.9347
0.4483150	5209.2312
0.4549676	5292.4537
0.4616175	5392.3429
0.4660563	5425.6022
0.4749256	5542.1210
0.4793588	5608.7138
0.4815754	5642.0102
0.4860115	5691.9363
0.4904447	5758.5291
0.4970974	5841.7515
0.5015362	5875.0109
0.5059666	5958.2704
0.5103999	6024.8631
0.5126109	6091.4930
0.5148219	6158.1228
0.5170273	6258.0860
0.5170217	6291.4194
0.5214493	6391.3457
0.5281047	6457.9014
0.5325436	6491.1607
0.5369824	6524.4201
0.5480823	6590.9018
0.5569600	6657.4205
0.5636211	6690.6428
0.5724960	6773.8282
0.5791571	6807.0505
0.5813737	6840.3469
0.5835875	6890.3100
0.5858041	6923.6064
0.5902345	7006.8659
0.5924484	7056.8290
0.5968760	7156.7552
0.6013036	7256.6814
0.6057340	7339.9409
0.6101673	7406.5337
0.6145949	7506.4599
0.6190197	7623.0528
0.6256780	7672.9418
0.6323306	7756.1643
0.6412055	7839.3497
0.6434249	7855.9794
0.6522998	7939.1648
0.6589525	8022.3873
0.6656051	8105.6097
0.6744800	8188.7951
0.6811271	8305.3510
0.6899991	8405.2032
0.6944296	8488.4627
0.6988572	8588.3889
0.7032848	8688.3151
0.7099318	8804.8709
0.7210346	8854.6859
0.7299123	8921.2046
0.7387928	8971.0566
0.7454538	9004.2789
0.7565538	9070.7606
0.7632120	9120.6496
0.7698731	9153.8719
0.7765342	9187.0942
0.7831896	9253.6500
0.7876285	9286.9093
0.7942839	9353.4651
0.8009394	9420.0208
0.8075949	9486.5766
0.8120309	9536.5026
0.8186864	9603.0584
0.8297863	9669.5400
0.8342279	9686.1327
0.8408862	9736.0217
0.8497667	9785.8737
0.8564278	9819.0960
0.8630860	9868.9850
0.8697499	9885.5406
0.8786276	9952.0593
0.8897275	10018.5410
0.8963858	10068.4300
0.9030384	10151.6525
0.9119161	10218.1712
0.9185716	10284.7269
0.9230076	10334.6530
0.9340991	10451.1348
0.9407518	10534.3573
0.9474016	10634.2464
0.9518377	10684.1725
0.9584875	10784.0617
0.9606985	10850.6915
0.9629067	10933.9880
0.9673372	11017.2475
0.9673259	11083.9144
0.9695341	11167.2109
0.9717423	11250.5074
0.9717339	11300.5076
0.9739393	11400.4708
0.9783641	11517.0637
0.9805695	11617.0270
0.9827777	11700.3235
0.9849859	11783.6200
0.9871913	11883.5833
0.9893967	11983.5465
0.9915993	12100.1765
0.9938075	12183.4730
0.9960157	12266.7695
1.0004405	12383.3625
0.9982043	12466.7331
0.9981930	12533.3999
0.9959540	12633.4372
0.9959456	12683.4374
0.9937093	12766.8080
0.9936953	12850.1416
0.9914562	12950.1789
0.9914366	13066.8459
0.9914169	13183.5129
0.9802918	13267.0316
0.9758417	13300.4391
0.9691638	13367.2171
0.9580386	13450.7358
0.9491385	13517.5508
0.9446884	13550.9583
0.9402355	13601.0326
0.9268937	13651.2549
0.9157742	13701.4402
0.9046546	13751.6256
0.8979823	13785.0701
0.8868628	13835.2554
0.8801905	13868.7000
0.8668487	13918.9223
0.8557291	13969.1077
0.8490568	14002.5522
0.8423873	14019.3300
0.8312678	14069.5153
0.8223732	14102.9969
0.8112537	14153.1822
0.7956897	14203.4416
0.7890174	14236.8862
0.7778978	14287.0715
0.7645560	14337.2939
0.7534365	14387.4792
0.7467670	14404.2570
0.7378724	14437.7386
0.7245278	14504.6277
0.7178584	14521.4055
0.7067388	14571.5908
0.6956220	14605.1094
0.6889497	14638.5540
0.6778302	14688.7393
0.6689357	14722.2209
0.6578189	14755.7395
0.6511466	14789.1840
0.6355854	14822.7767
0.6244714	14839.6286
0.6133547	14873.1472
0.6022407	14889.9991
0.5955713	14906.7770
0.5844573	14923.6289
0.5688961	14957.2215
0.5533349	14990.8142
0.5399959	15024.3699
0.5288820	15041.2218
0.5133207	15074.8145
0.5022068	15091.6664
0.4910900	15125.1850
0.4799761	15142.0369
0.4733066	15158.8147
0.4621927	15175.6666
0.4510759	15209.1852

