ARQUIVO DE REFERENCIA
Usuário: LEONARDO
Amostra: DETECTOR DE SILICIO
Comentário: 4 A e 23.8 V
Area: 5.107
320 Hz
Com filtros
Todas Grades
Parâmetros: vmode 1 sen 27 acgain 0 tc 10

Responsividade (A/W)	Comprimento de onda(nm)
0.06472	200.69652
0.06736	202.88557
0.07000	205.07463
0.07132	207.26368
0.07264	207.26368
0.07528	209.45274
0.07792	211.64179
0.08057	212.73632
0.08453	214.92537
0.08717	216.01990
0.08981	218.20896
0.08981	220.39801
0.09245	222.58706
0.09906	226.96517
0.10434	229.15423
0.10962	231.34328
0.11358	233.53234
0.11491	234.62687
0.11755	236.81592
0.12019	240.09950
0.12283	242.28856
0.12547	244.47761
0.12811	245.57214
0.13075	247.76119
0.13472	248.85572
0.13736	251.04478
0.13868	253.23383
0.13736	255.42289
0.13472	258.70647
0.13208	260.89552
0.12811	261.99005
0.12679	263.08458
0.12151	266.36816
0.11623	270.74627
0.11226	274.02985
0.10962	277.31343
0.10830	279.50249
0.10698	283.88060
0.10698	288.25871
0.10962	292.63682
0.11226	298.10945
0.11094	302.48756
0.10962	307.96020
0.10698	313.43284
0.10698	318.90547
0.10698	324.37811
0.10698	330.94527
0.10830	336.41791
0.10962	339.70149
0.11094	341.89055
0.11226	345.17413
0.11358	347.36318
0.11358	351.74129
0.11491	355.02488
0.11623	357.21393
0.11887	360.49751
0.12547	365.97015
0.12943	370.34826
0.13208	372.53731
0.13340	374.72637
0.13340	376.91542
0.13604	380.19900
0.14000	384.57711
0.14396	390.04975
0.14528	392.23881
0.14792	395.52239
0.15057	398.80597
0.15321	400.99502
0.15717	403.18408
0.16113	406.46766
0.16377	407.56219
0.16642	408.65672
0.16906	410.84577
0.17170	414.12935
0.17434	415.22388
0.17698	417.41294
0.17962	418.50746
0.18358	420.69652
0.18887	425.07463
0.19283	427.26368
0.19811	430.54726
0.20472	434.92537
0.21000	438.20896
0.21528	442.58706
0.21925	444.77612
0.22189	446.96517
0.22453	449.15423
0.22849	452.43781
0.23113	454.62687
0.24038	460.09950
0.24434	462.28856
0.24698	464.47761
0.25226	468.85572
0.25491	472.13930
0.26019	475.42289
0.26415	478.70647
0.26679	480.89552
0.26943	483.08458
0.27208	485.27363
0.27472	487.46269
0.27736	489.65174
0.28000	491.84080
0.28264	494.02985
0.28528	495.12438
0.28925	498.40796
0.29189	500.59701
0.29453	502.78607
0.29849	506.06965
0.30113	509.35323
0.30774	514.82587
0.31038	517.01493
0.31434	520.29851
0.31830	524.67662
0.32094	526.86567
0.32491	530.14925
0.32887	532.33831
0.33151	535.62189
0.33547	537.81095
0.34340	545.47264
0.34736	548.75622
0.35132	550.94527
0.35264	553.13433
0.35660	557.51244
0.36189	562.98507
0.36453	566.26866
0.36849	570.64677
0.37377	573.93035
0.37642	577.21393
0.37774	579.40299
0.37906	580.49751
0.38566	584.87562
0.38962	589.25373
0.39094	590.34826
0.39491	593.63184
0.40019	599.10448
0.40415	603.48259
0.40811	607.86070
0.40811	608.95522
0.41075	612.23881
0.41340	614.42786
0.41736	617.71144
0.42132	622.08955
0.42396	624.27861
0.42660	628.65672
0.43189	634.12935
0.43585	639.60199
0.43849	642.88557
0.44245	646.16915
0.44774	650.54726
0.45170	656.01990
0.45698	661.49254
0.46094	666.96517
0.46491	671.34328
0.46887	674.62687
0.47151	676.81592
0.47679	682.28856
0.47943	687.76119
0.48340	692.13930
0.48868	697.61194
0.49396	704.17910
0.49660	709.65174
0.50321	715.12438
0.50585	719.50249
0.50981	724.97512
0.51509	730.44776
0.51906	734.82587
0.52170	738.10945
0.52302	741.39303
0.52566	744.67662
0.52830	747.96020
0.52962	749.05473
0.53226	752.33831
0.53623	760.00000
0.54019	764.37811
0.54283	767.66169
0.54415	769.85075
0.54679	773.13433
0.55075	779.70149
0.55340	782.98507
0.55604	787.36318
0.55868	791.74129
0.56132	795.02488
0.56264	798.30846
0.56528	801.59204
0.56792	804.87562
0.56925	808.15920
0.57321	813.63184
0.57717	820.19900
0.57849	823.48259
0.58113	825.67164
0.58377	831.14428
0.58509	832.23881
0.58509	834.42786
0.58642	837.71144
0.58906	842.08955
0.59038	845.37313
0.59302	849.75124
0.59434	853.03483
0.59830	858.50746
0.60226	866.16915
0.60358	870.54726
0.60491	871.64179
0.60623	876.01990
0.60887	880.39801
0.61019	883.68159
0.61151	889.15423
0.61151	891.34328
0.61283	894.62687
0.61415	897.91045
0.61547	911.04478
0.61415	915.42289
0.61283	920.89552
0.60887	927.46269
0.60623	931.84080
0.60094	937.31343
0.59434	942.78607
0.59038	944.97512
0.58509	949.35323
0.58113	950.44776
0.57585	953.73134
0.56792	957.01493
0.56132	960.29851
0.55604	962.48756
0.54811	965.77114
0.54019	969.05473
0.53094	972.33831
0.52434	974.52736
0.51642	976.71642
0.50981	978.90547
0.50321	981.09453
0.49660	983.28358
0.49000	985.47264
0.48208	987.66169
0.47415	989.85075
0.47019	990.94527
0.46623	992.03980
0.45962	993.13433
0.45434	994.22886
0.45302	995.32338
0.44642	996.41791
0.44245	997.51244
0.43453	999.70149
0.42660	1001.89055
0.41868	1002.98507
0.41075	1005.17413
0.40283	1007.36318
0.40019	1008.45771
0.39226	1009.55224
0.38434	1010.64677
0.37642	1011.74129
0.36849	1013.93035
0.35925	1016.11940
0.35000	1017.21393
0.34340	1018.30846
0.33547	1019.40299
0.33151	1020.49751
0.32623	1021.59204
0.31830	1022.68657
0.31038	1024.87562
0.30377	1025.97015
0.29981	1027.06468
0.29321	1028.15920
0.28132	1030.34826
0.27736	1031.44279
0.26811	1032.53731
0.25887	1034.72637
0.24962	1035.82090
0.24302	1038.00995
0.23245	1039.10448
0.22717	1040.19900
0.21792	1042.38806
0.21000	1044.57711
0.20340	1045.67164
0.19415	1047.86070
0.18623	1048.95522
0.17830	1051.14428
0.17038	1053.33333
0.16245	1055.52239
0.15321	1057.71144
0.14528	1059.90050
0.13736	1062.08955
0.12811	1065.37313
0.11887	1068.65672
0.11094	1070.84577
0.10302	1074.12935
0.09642	1076.31841
0.09113	1078.50746
0.08321	1081.79104
0.07660	1085.07463
0.07000	1088.35821
0.06208	1091.64179
0.05415	1096.01990
0.05151	1097.11443
0.04358	1102.58706
0.04094	1104.77612
0.03434	1108.05970
0.02906	1112.43781
0.02377	1116.81592
0.01849	1122.28856
0.01453	1127.76119
0.01057	1134.32836
0.00925	1137.61194
0.00792	1139.80100
0.00792	1141.99005

